intensity received
RegValue: 170
-252.67
664.33
1985.33
5420.33
27987.33
43378.33
49123.33
60394.33
69783.33
75878.33
85445.33
97582.33
108897.33
114752.33
126373.33
139182.33
144127.33
156284.33
169217.33
173826.33
186457.33
198332.33
202835.33
216122.33
227853.33
233102.33
244875.33
255654.33
262033.33
273588.33
284823.33
291418.33
302567.33
313810.33
319907.33
330680.33
343293.33
348208.33
360319.33
372052.33
376733.33
388486.33
399909.33
403982.33
415999.33
427946.33
432857.33
444636.33
455591.33
460858.33
472563.33
483576.33
494385.33
499682.33
511115.33
521950.33
526671.33
538724.33
551867.33
555770.33
566783.33
578592.33
583057.33
594478.33
605465.33
610448.33
622347.33
632570.33
641547.33
664066.33
671413.33
676216.33
686617.33
697218.33
702669.33
712380.33
723073.33
727270.33
737129.33
748658.33
756961.33
769816.33
780039.33
788340.33
800511.33
810494.33
813667.33
824974.33
835049.33
838934.33
848411.33
856656.33
867385.33
873476.33
887633.33
898642.33
903231.33
913986.33
922457.33
926484.33
934879.33
944114.33
948109.33
959668.33
969989.33
975616.33
986277.33
995412.33
1001047.33
1010102.33
1017351.33
1022544.33
1033097.33
1042886.33
1048091.33
1057904.33
1068703.33
1073028.33
1083333.33
1093984.33
1097589.33
1108390.33
1120009.33
1127074.33
1149423.33
1156134.33
1159671.33
1170234.33
1180697.33
1181726.33
1170437.33
1159348.33
1148211.33
1142930.33
1131401.33
1121642.33
1118105.33
1111894.33
1102111.33
1095606.33
1086297.33
1074764.33
1068255.33
1058476.33
1048477.33
1043668.33
1032421.33
1021010.33
1018265.33
1007274.33
997125.33
993068.33
979105.33
968780.33
963549.33
952484.33
937741.33
932060.33
920923.33
913138.33
906101.33
892984.33
882721.33
876714.33
867203.33
856084.33
850493.33
840324.33
829005.33
824552.33
814337.33
803042.33
798329.33
786656.33
774901.33
764710.33
759541.33
747908.33
738019.33
732448.33
722005.33
710996.33
705493.33
694920.33
683369.33
678858.33
667063.33
655818.33
651099.33
640212.33
628547.33
624658.33
613103.33
600566.33
596419.33
586794.33
574031.33
568250.33
556195.33
546486.33
539475.33
528636.33
518739.33
513360.33
501881.33
490268.33
484221.33
473786.33
462065.33
456986.33
446105.33
433868.33
429457.33
416756.33
405291.33
393646.33
388055.33
376698.33
366561.33
360452.33
348715.33
337518.33
330903.33
319524.33
308849.33
303066.33
291583.33
279340.33
274419.33
262572.33
249977.33
245510.33
233105.33
221214.33
216185.33
204262.33
192111.33
187074.33
175915.33
163778.33
157565.33
145150.33
134133.33
127870.33
116847.33
104910.33
98943.33
87404.33
75859.33
72334.33
62809.33
50672.33
46077.33
31744.33
9483.33
intensity received
RegValue: 170
243.33
36.33
-720.67
4356.33
23625.33
37352.33
41847.33
50638.33
60603.33
69178.33
73391.33
84896.33
94613.33
100202.33
110521.33
120144.33
126107.33
136108.33
146723.33
152764.33
161299.33
172062.33
176751.33
186966.33
197867.33
201686.33
213309.33
224682.33
228777.33
239000.33
250129.33
254076.33
265513.33
275686.33
280183.33
290550.33
299741.33
305058.33
314655.33
324658.33
330357.33
339886.33
349947.33
355138.33
364467.33
375122.33
379531.33
389098.33
399677.33
409626.33
414735.33
425232.33
434083.33
438600.33
448079.33
458146.33
463403.33
473442.33
482857.33
487630.33
497297.33
508142.33
513345.33
523016.33
533159.33
537530.33
546989.33
557954.33
562037.33
572056.33
581769.33
586458.33
597683.33
606786.33
611225.33
620442.33
629003.33
634224.33
642759.33
652278.33
657463.33
665590.33
675917.33
680826.33
690253.33
698714.33
703501.33
713010.33
723297.33
733334.33
737457.33
747280.33
755969.33
760632.33
769797.33
778306.33
784147.33
792556.33
801573.33
806776.33
815525.33
825614.33
830043.33
838332.33
848681.33
852624.33
861983.33
871266.33
874507.33
885278.33
894631.33
898632.33
908881.33
917370.33
921685.33
930664.33
939509.33
944324.33
953021.33
961974.33
966755.33
976128.33
984917.33
989244.33
997935.33
1007730.33
1011955.33
1020602.33
1030903.33
1031386.33
1022275.33
1012982.33
1003371.33
999194.33
990075.33
982380.33
978479.33
968674.33
958571.33
954978.33
945091.33
935074.33
930973.33
921506.33
912451.33
908050.33
898629.33
889458.33
883433.33
875212.33
866621.33
861246.33
853063.33
843544.33
838963.33
829916.33
820095.33
816360.33
807121.33
796714.33
793253.33
783168.33
773349.33
769372.33
759181.33
749760.33
744881.33
735738.33
725883.33
721334.33
717949.33
707400.33
700969.33
696056.33
685321.33
673178.33
668507.33
658480.33
648517.33
644102.33
633781.33
624172.33
620643.33
610368.33
600507.33
595626.33
586457.33
577350.33
571931.33
562630.33
553269.33
547846.33
538453.33
527856.33
522539.33
513500.33
504269.33
500364.33
490323.33
479160.33
475033.33
463958.33
453691.33
449704.33
439879.33
429754.33
425469.33
415360.33
406195.33
400802.33
390879.33
382070.33
370493.33
366158.33
356033.33
346040.33
341975.33
331648.33
320907.33
317156.33
305511.33
295598.33
291627.33
281348.33
271691.33
266830.33
255765.33
246198.33
240785.33
230688.33
221199.33
215516.33
205215.33
194644.33
189581.33
179474.33
168237.33
164424.33
153601.33
143420.33
139979.33
128370.33
118497.33
114100.33
102559.33
93014.33
88039.33
77180.33
68379.33
63784.33
54729.33
45720.33
35263.33
28550.33
9947.33
intensity received
RegValue: 170
-886.00
-507.00
832.00
5579.00
32600.00
54597.00
61328.00
76397.00
91666.00
97883.00
114712.00
130539.00
146838.00
156073.00
172708.00
189151.00
197408.00
215333.00
233922.00
241237.00
258650.00
276199.00
282604.00
301767.00
324226.00
332897.00
355560.00
370783.00
377948.00
390529.00
402078.00
408837.00
421654.00
433521.00
441428.00
457739.00
473450.00
476985.00
486844.00
475727.00
465498.00
469011.00
464854.00
459821.00
478272.00
486249.00
487536.00
498683.00
506584.00
514993.00
518022.00
531947.00
559710.00
565999.00
578516.00
589859.00
596954.00
613515.00
633394.00
643169.00
659580.00
675873.00
685822.00
718189.00
731622.00
735243.00
744852.00
759657.00
766430.00
781105.00
792212.00
796621.00
811306.00
828019.00
834302.00
845189.00
859858.00
867701.00
887964.00
900387.00
906174.00
918735.00
934330.00
942359.00
957184.00
977337.00
986166.00
1083401.00
1103626.00
1051349.00
1061530.00
1101375.00
1115344.00
1117331.00
1109260.00
1111635.00
1109618.00
1114345.00
1140770.00
1143833.00
1159054.00
1166383.00
1168174.00
1171081.00
1169122.00
1174337.00
1187944.00
1211607.00
1218270.00
1228997.00
1234088.00
1236845.00
1237286.00
1240865.00
1242562.00
1247459.00
1256068.00
1260461.00
1254746.00
1263771.00
1267480.00
1279343.00
1296362.00
1316187.00
1348088.00
1366693.00
1369850.00
1376835.00
1384282.00
1371401.00
1363468.00
1341581.00
1316052.00
1306823.00
1287344.00
1276159.00
1269766.00
1257609.00
1228008.00
1222735.00
1213436.00
1207909.00
1203180.00
1200655.00
1196620.00
1192955.00
1184528.00
1175675.00
1184026.00
1193095.00
1169252.00
1161655.00
1144570.00
1147947.00
1150790.00
1146325.00
1132832.00
1127377.00
1113216.00
1100109.00
1094846.00
1084899.00
1087050.00
1102183.00
1095764.00
1078753.00
1069154.00
1052293.00
1035466.00
1026307.00
1026820.00
1010533.00
998864.00
980375.00
965156.00
962669.00
957070.00
939869.00
925982.00
918695.00
902148.00
888171.00
880964.00
865679.00
844958.00
829123.00
812878.00
799217.00
790780.00
778007.00
763612.00
758875.00
745718.00
727151.00
720384.00
705949.00
690470.00
682575.00
670678.00
651861.00
646972.00
651577.00
626634.00
619027.00
602330.00
585619.00
574500.00
570759.00
559422.00
553231.00
545202.00
538203.00
518844.00
510483.00
494016.00
478339.00
471696.00
458619.00
438040.00
436627.00
420246.00
414015.00
414780.00
410029.00
391164.00
381795.00
367698.00
348859.00
341622.00
326793.00
312480.00
306555.00
292696.00
279325.00
273550.00
258375.00
248436.00
241777.00
225674.00
208361.00
205148.00
179011.00
162326.00
153433.00
139600.00
124669.00
111120.00
104173.00
92872.00
80379.00
75704.00
63835.00
47780.00
39535.00
11542.00
intensity received
RegValue: 170
260.00
57.00
-216.00
3885.00
16548.00
24987.00
28666.00
35737.00
40464.00
46109.00
47594.00
57867.00
69190.00
72079.00
82506.00
91801.00
95898.00
105401.00
113786.00
117843.00
126290.00
134593.00
140656.00
148401.00
158206.00
162845.00
170212.00
179041.00
182792.00
189759.00
198980.00
202063.00
211004.00
219709.00
222370.00
229953.00
238736.00
242297.00
251086.00
261399.00
266422.00
274153.00
280540.00
283823.00
290422.00
296815.00
300894.00
309771.00
316278.00
324533.00
327520.00
335139.00
343836.00
346307.00
356104.00
370991.00
375744.00
385951.00
394682.00
398843.00
406328.00
414535.00
419878.00
426745.00
435772.00
441629.00
450174.00
458435.00
461340.00
465427.00
475304.00
477165.00
486236.00
497143.00
499028.00
506967.00
514308.00
520301.00
529434.00
536037.00
537130.00
548743.00
554840.00
557125.00
558978.00
562033.00
566680.00
571707.00
575054.00
584275.00
583890.00
585751.00
583688.00
581143.00
580664.00
585241.00
597072.00
609605.00
629938.00
635653.00
634332.00
633299.00
641128.00
655207.00
660336.00
666687.00
681682.00
684223.00
685662.00
689953.00
696760.00
695659.00
700712.00
708205.00
705976.00
719617.00
724252.00
724131.00
724848.00
712979.00
666804.00
619259.00
627022.00
628511.00
628038.00
638303.00
643950.00
649467.00
655152.00
655327.00
652540.00
647157.00
643604.00
640013.00
637910.00
635847.00
632448.00
626141.00
620382.00
617385.00
610838.00
604777.00
606230.00
600547.00
592566.00
590361.00
583082.00
576243.00
573872.00
567025.00
562288.00
560041.00
553530.00
548171.00
543910.00
538225.00
535042.00
531915.00
526932.00
520015.00
515734.00
508777.00
501754.00
499017.00
491518.00
482651.00
482058.00
480755.00
473228.00
466353.00
462746.00
456721.00
450716.00
448159.00
441868.00
434831.00
431216.00
425379.00
418888.00
415399.00
407980.00
401471.00
399020.00
392275.00
385536.00
383909.00
377192.00
371697.00
369612.00
362295.00
356868.00
353531.00
346524.00
341015.00
337796.00
332915.00
326076.00
321659.00
315984.00
311885.00
309062.00
302107.00
293428.00
290721.00
285528.00
278275.00
276236.00
268777.00
262990.00
257253.00
253722.00
247499.00
241432.00
237113.00
231282.00
225357.00
221750.00
215485.00
208644.00
205631.00
200382.00
192163.00
190128.00
184125.00
176674.00
174955.00
167428.00
160477.00
158088.00
151129.00
145156.00
141679.00
134990.00
128919.00
124922.00
118453.00
112718.00
108697.00
102920.00
96443.00
92224.00
86563.00
79584.00
76737.00
69096.00
62689.00
60050.00
52733.00
46676.00
41731.00
38786.00
32549.00
26360.00
20489.00
6108.00
intensity received
RegValue: 170
-672.67
798.33
75.33
3548.33
20279.33
29336.33
33657.33
39396.33
45153.33
49144.33
55695.33
63108.33
70307.33
72980.33
80553.33
88556.33
90741.33
98728.33
106563.33
108796.33
115789.33
122826.33
126245.33
133400.33
139857.33
144308.33
153077.33
159784.33
164021.33
169870.33
176811.33
180166.33
186791.33
194510.33
197303.33
204388.33
212069.33
214226.33
221523.33
229094.33
231699.33
239320.33
246323.33
249018.33
256087.33
263970.33
267955.33
274474.33
281201.33
285692.33
291139.33
298108.33
306091.33
308664.33
315153.33
322720.33
325019.33
333774.33
341401.33
343790.33
352519.33
358794.33
362073.33
369664.33
375447.33
378676.33
385065.33
391054.33
395091.33
401088.33
407717.33
411128.33
417089.33
424274.33
427111.33
434638.33
442327.33
444344.33
451603.33
459300.33
461173.33
468630.33
475605.33
478802.33
486915.33
493538.33
497265.33
503568.33
509523.33
513936.33
520659.33
526066.33
530427.33
535718.33
542857.33
550798.33
553281.33
560708.33
568155.33
571034.33
579771.33
588830.33
592871.33
597970.33
601545.33
605170.33
612287.33
618002.33
621759.33
628468.33
634741.33
637922.33
650873.33
663262.33
665873.33
672340.33
680171.33
682364.33
691183.33
696396.33
698603.33
705392.33
711007.33
713944.33
721807.33
728164.33
731479.33
741512.33
746115.33
746448.33
738547.33
732386.33
733621.33
728832.33
720389.33
716608.33
712693.33
705400.33
696823.33
691178.33
692107.33
687984.33
683211.33
679782.33
670345.33
667826.33
658769.33
648664.33
644137.33
633096.33
625485.33
622522.33
615381.33
609824.33
606833.33
598310.33
592033.33
590078.33
585327.33
584930.33
577953.33
572062.33
563289.33
555702.33
547697.33
541034.33
537205.33
529660.33
522609.33
520862.33
512325.33
503744.33
501047.33
493828.33
486515.33
483558.33
476823.33
470068.33
467369.33
464812.33
457081.33
450692.33
446571.33
439578.33
431475.33
429166.33
422947.33
414962.33
411777.33
404090.33
396703.33
395038.33
387533.33
379158.33
375339.33
368636.33
361781.33
357650.33
350701.33
343944.33
339873.33
333418.33
326949.33
323084.33
315833.33
309042.33
305769.33
299096.33
291401.33
288804.33
281081.33
273166.33
270697.33
262196.33
254627.33
251714.33
244423.33
237558.33
231271.33
226828.33
220235.33
212398.33
208567.33
202856.33
195125.33
191610.33
185329.33
176036.33
173953.33
165268.33
157363.33
154792.33
146713.33
140310.33
137691.33
130220.33
123809.33
119186.33
112235.33
105626.33
101335.33
94262.33
86729.33
82770.33
75899.33
68498.33
65303.33
57534.33
49823.33
47438.33
41811.33
33970.33
31527.33
21236.33
5639.33
intensity received
RegValue: 170
52.67
-150.33
-405.33
2127.67
16870.67
27207.67
30994.67
36943.67
42780.67
48495.67
51672.67
58383.67
65222.67
67365.67
74458.67
84187.67
87404.67
94549.67
101424.67
104015.67
112222.67
119001.67
121842.67
129597.67
135448.67
138455.67
145372.67
151887.67
155942.67
162491.67
169302.67
173189.67
178614.67
185949.67
188810.67
195767.67
203384.67
205345.67
212982.67
220447.67
223010.67
231075.67
237080.67
239969.67
246664.67
253235.67
256604.67
263265.67
268822.67
275391.67
277948.67
284303.67
292614.67
295001.67
302564.67
310019.67
312496.67
319807.67
325912.67
328315.67
336164.67
342407.67
346468.67
353577.67
359538.67
363787.67
369680.67
375133.67
378694.67
384323.67
392146.67
395873.67
402084.67
409107.67
412022.67
419915.67
427774.67
430041.67
438366.67
444429.67
446738.67
454519.67
460814.67
463591.67
469758.67
476129.67
479886.67
485795.67
491824.67
499269.67
501718.67
508597.67
515626.67
517637.67
523928.67
531515.67
533558.67
542555.67
549284.67
551915.67
559232.67
565081.67
568708.67
574031.67
579466.67
583939.67
590170.67
595591.67
600150.67
607221.67
613986.67
617371.67
624240.67
631621.67
634072.67
641703.67
649468.67
651333.67
658678.67
664989.67
666804.67
673983.67
680858.67
684899.67
691262.67
699275.67
718876.67
721681.67
722846.67
724593.67
716044.67
710361.67
702444.67
698263.67
697784.67
691541.67
686032.67
679681.67
673592.67
668787.67
662240.67
654257.67
651506.67
644943.67
638320.67
637149.67
630352.67
623249.67
620548.67
613413.67
608230.67
604873.67
593724.67
588057.67
584462.67
579073.67
573758.67
570787.67
562312.67
554559.67
550802.67
544807.67
537770.67
536325.67
528158.67
520237.67
518682.67
531351.67
513910.67
513485.67
504236.67
493975.67
487644.67
475119.67
468358.67
462625.67
458478.67
452145.67
446154.67
442229.67
438198.67
436933.67
435448.67
429613.67
422390.67
419503.67
409224.67
400771.67
397564.67
389779.67
386392.67
382229.67
374956.67
368323.67
364172.67
357507.67
350602.67
347853.67
350286.67
342319.67
339358.67
332025.67
322214.67
318579.67
311404.67
302281.67
299412.67
292307.67
284624.67
281451.67
272366.67
267523.67
264428.67
256963.67
249584.67
242159.67
238464.67
246159.67
235292.67
231881.67
224540.67
210169.67
206402.67
198415.67
193302.67
191275.67
183086.67
175149.67
172326.67
164131.67
157136.67
152985.67
146018.67
138557.67
134194.67
128107.67
121692.67
116435.67
109760.67
102441.67
98778.67
92067.67
84000.67
81281.67
74100.67
65789.67
62974.67
54513.67
47686.67
45597.67
38410.67
32289.67
29480.67
19839.67
4838.67
